->       1      12       2     301                                 <-   
ENERGY                                                                          
  2.03334000E+07  1.96720000E+07  1.90322000E+07  1.84132000E+07  1.78142000E+07
  1.72348000E+07  1.66742000E+07  1.61319000E+07  1.56072000E+07  1.50996000E+07
  1.46084000E+07  1.41333000E+07  1.36736000E+07  1.32288000E+07  1.27985000E+07
  1.23823000E+07  1.19795000E+07  1.15899000E+07  1.12129000E+07  1.08482000E+07
  1.04953000E+07  1.01540000E+07  9.82370000E+06  9.50417000E+06  9.19504000E+06
  8.89596000E+06  8.60661000E+06  8.32667000E+06  8.05584000E+06  7.79381000E+06
  7.54031000E+06  7.29506000E+06  7.05778000E+06  6.82822000E+06  6.60612000E+06
  6.39125000E+06  6.18337000E+06  5.98225000E+06  5.78767000E+06  5.59942000E+06
  5.41729000E+06  5.24109000E+06  5.07062000E+06  4.90569000E+06  4.74613000E+06
  4.59176000E+06  4.44240000E+06  4.29791000E+06  4.15812000E+06  4.02287000E+06
  3.89202000E+06  3.76543000E+06  3.64296000E+06  3.52446000E+06  3.40983000E+06
  3.29892000E+06  3.19162000E+06  3.08781000E+06  2.98737000E+06  2.89021000E+06
  2.79620000E+06  2.70525000E+06  2.61726000E+06  2.53213000E+06  2.44977000E+06
  2.37009000E+06  2.29300000E+06  2.21842000E+06  2.14626000E+06  2.07645000E+06
  2.00891000E+06  1.94357000E+06  1.88036000E+06  1.81919000E+06  1.76002000E+06
  1.70278000E+06  1.64739000E+06  1.59381000E+06  1.54197000E+06  1.49182000E+06
  1.44329000E+06  1.39635000E+06  1.35093000E+06  1.30699000E+06  1.26448000E+06
  1.22335000E+06  1.18356000E+06  1.14506000E+06  1.10782000E+06  1.07179000E+06
  1.03692000E+06  1.00320000E+06  9.70568000E+05  9.38999000E+05  9.08457000E+05
  8.78909000E+05  8.50321000E+05  8.22664000E+05  7.95906000E+05  7.70018000E+05
  7.44972000E+05  7.20742000E+05  6.97299000E+05  6.74618000E+05  6.52676000E+05
  6.31447000E+05  6.10908000E+05  5.91038000E+05  5.71814000E+05  5.53215000E+05
  5.35221000E+05  5.17812000E+05  5.00970000E+05  4.84676000E+05  4.68911000E+05
  4.53659000E+05  4.38903000E+05  4.24628000E+05  4.10816000E+05  3.97454000E+05
  3.84526000E+05  3.72019000E+05  3.59919000E+05  3.48212000E+05  3.36886000E+05
  3.25929000E+05  3.15328000E+05  3.05071000E+05  2.95149000E+05  2.85549000E+05
  2.76261000E+05  2.67275000E+05  2.58582000E+05  2.50171000E+05  2.42034000E+05
  2.34162000E+05  2.26545000E+05  2.19177000E+05  2.12048000E+05  2.05151000E+05
  1.98478000E+05  1.92022000E+05  1.85776000E+05  1.79734000E+05  1.73888000E+05
  1.68232000E+05  1.62760000E+05  1.57466000E+05  1.52344000E+05  1.47389000E+05
  1.42595000E+05  1.37957000E+05  1.33470000E+05  1.29129000E+05  1.24929000E+05
  1.20865000E+05  1.16934000E+05  1.13131000E+05  1.09451000E+05  1.05891000E+05
  1.02447000E+05  9.91146016E+04  9.58907969E+04  9.27717969E+04  8.97542969E+04
  8.68350000E+04  8.40106016E+04  8.12780000E+04  7.86343984E+04  7.60767031E+04
  7.36022969E+04  7.12082969E+04  6.88922031E+04  6.66513984E+04  6.44835000E+04
  6.23861016E+04  6.03568984E+04  5.83936992E+04  5.64943984E+04  5.46568984E+04
  5.28791016E+04  5.11591992E+04  4.94951992E+04  4.78853008E+04  4.63278008E+04
  4.48208984E+04  4.33631016E+04  4.19526016E+04  4.05881016E+04  3.92678984E+04
  3.79906992E+04  3.67550000E+04  3.55595000E+04  3.44028984E+04  3.32838984E+04
  3.22013008E+04  3.11539004E+04  3.01405996E+04  2.91603008E+04  2.82118008E+04
  2.72941992E+04  2.64064004E+04  2.55475000E+04  2.47165996E+04  2.39125996E+04
  2.31348008E+04  2.23824004E+04  2.16544004E+04  2.09500000E+04  2.02685996E+04
  1.96093008E+04  1.89715000E+04  1.83545000E+04  1.77575000E+04  1.71799004E+04
  1.66210996E+04  1.60805000E+04  1.55574004E+04  1.50514004E+04  1.45619004E+04
  1.40882002E+04  1.36300000E+04  1.31867002E+04  1.27577002E+04  1.23427998E+04
  1.19412998E+04  1.15529004E+04  1.11772002E+04  1.08135996E+04  1.04619004E+04
  1.01215996E+04  9.79237988E+03  9.47387988E+03  9.16573047E+03  8.86759961E+03
  8.57917969E+03  8.30012988E+03  8.03016016E+03  7.76897021E+03  7.51627979E+03
  7.27179980E+03  7.03527979E+03  6.80645020E+03  6.58506006E+03  6.37087988E+03
  6.16366016E+03  5.96318018E+03  5.76922021E+03  5.58156982E+03  5.40002002E+03
  5.22437988E+03  5.05445996E+03  4.89004980E+03  4.73100000E+03  4.57712012E+03
  4.42824023E+03  4.28420996E+03  4.14485986E+03  4.01005005E+03  3.87962012E+03
  3.75342993E+03  3.63134009E+03  3.51322998E+03  3.39895996E+03  3.28839990E+03
  3.18144995E+03  3.07796997E+03  2.97785010E+03  2.88098999E+03  2.78729004E+03
  2.69662988E+03  2.60891992E+03  2.52406006E+03  2.44195996E+03  2.36253003E+03
  2.28568994E+03  2.21135010E+03  2.13941992E+03  2.06983008E+03  2.00251001E+03
  1.93738000E+03  1.87435999E+03  1.81340002E+03  1.75441003E+03  1.69734998E+03
  1.64214001E+03  1.58872998E+03  1.53705005E+03  1.48706006E+03  1.43868994E+03
  1.39190002E+03  1.34662000E+03  1.30281995E+03  1.26044995E+03  1.21944995E+03
  1.17979004E+03  1.14141003E+03  1.10429001E+02  1.06836998E+02  1.03362000E+02
  1.00000000E+02
->       1      12       2     300                                 <-   
DELTAU                                                                          
  3.30685861E-02  3.30639742E-02  3.30644362E-02  3.30719315E-02  3.30652446E-02
  3.30680124E-02  3.30639742E-02  3.30662802E-02  3.30640897E-02  3.30715850E-02
  3.30629349E-02  3.30667421E-02  3.30706649E-02  3.30682397E-02  3.30599360E-02
  3.30711231E-02  3.30628194E-02  3.30691636E-02  3.30657028E-02  3.30715850E-02
  3.30598205E-02  3.30698565E-02  3.30672041E-02  3.30663957E-02  3.30669731E-02
  3.30667421E-02  3.30668576E-02  3.30662802E-02  3.30674350E-02  3.30665112E-02
  3.30659337E-02  3.30668576E-02  3.30665112E-02  3.30675505E-02  3.30666266E-02
  3.30663957E-02  3.30666266E-02  3.30669731E-02  3.30667421E-02  3.30673195E-02
  3.30661647E-02  3.30663957E-02  3.30673195E-02  3.30661647E-02  3.30661647E-02
  3.30685861E-02  3.30659337E-02  3.30658183E-02  3.30674350E-02  3.30673195E-02
  3.30662802E-02  3.30654718E-02  3.30692790E-02  3.30647826E-02  3.30673195E-02
  3.30665112E-02  3.30665112E-02  3.30687016E-02  3.30642052E-02  3.30677815E-02
  3.30669731E-02  3.30663957E-02  3.30670886E-02  3.30667421E-02  3.30661647E-02
  3.30669731E-02  3.30658183E-02  3.30684707E-02  3.30670886E-02  3.30674350E-02
  3.30658183E-02  3.30632813E-02  3.30719315E-02  3.30661647E-02  3.30629349E-02
  3.30699719E-02  3.30648981E-02  3.30665112E-02  3.30639742E-02  3.30715850E-02
  3.30635123E-02  3.30684707E-02  3.30665112E-02  3.30658183E-02  3.30680124E-02
  3.30661647E-02  3.30698565E-02  3.30629349E-02  3.30639742E-02  3.30753922E-02
  3.30599360E-02  3.30687016E-02  3.30670886E-02  3.30668576E-02  3.30661647E-02
  3.30674350E-02  3.30660492E-02  3.30667421E-02  3.30672041E-02  3.30672041E-02
  3.30653600E-02  3.30669731E-02  3.30676660E-02  3.30658183E-02  3.30668576E-02
  3.30676660E-02  3.30660492E-02  3.30665112E-02  3.30670886E-02  3.30669731E-02
  3.30675505E-02  3.30660492E-02  3.30655873E-02  3.30676660E-02  3.30672041E-02
  3.30674350E-02  3.30648981E-02  3.30680124E-02  3.30661647E-02  3.30677815E-02
  3.30665112E-02  3.30659337E-02  3.30675505E-02  3.30668576E-02  3.30650136E-02
  3.30661647E-02  3.30688171E-02  3.30642052E-02  3.30666266E-02  3.30675505E-02
  3.30680124E-02  3.30652446E-02  3.30681279E-02  3.30665112E-02  3.30650136E-02
  3.30696255E-02  3.30639742E-02  3.30669731E-02  3.30663957E-02  3.30680124E-02
  3.30683552E-02  3.30683552E-02  3.30636278E-02  3.30665112E-02  3.30674350E-02
  3.30672041E-02  3.30672041E-02  3.30684707E-02  3.30658183E-02  3.30668576E-02
  3.30663957E-02  3.30653600E-02  3.30647826E-02  3.30662802E-02  3.30713540E-02
  3.30645517E-02  3.30632813E-02  3.30695100E-02  3.30667421E-02  3.30646671E-02
  3.30688171E-02  3.30667421E-02  3.30673195E-02  3.30667421E-02  3.30661647E-02
  3.30667421E-02  3.30676660E-02  3.30661647E-02  3.30672041E-02  3.30658183E-02
  3.30668576E-02  3.30662802E-02  3.30669731E-02  3.30666266E-02  3.30668576E-02
  3.30673195E-02  3.30672041E-02  3.30665112E-02  3.30660492E-02  3.30672041E-02
  3.30659337E-02  3.30666266E-02  3.30670886E-02  3.30663957E-02  3.30676660E-02
  3.30655873E-02  3.30684707E-02  3.30654718E-02  3.30676660E-02  3.30659337E-02
  3.30670886E-02  3.30669731E-02  3.30665112E-02  3.30670886E-02  3.30668576E-02
  3.30674350E-02  3.30663957E-02  3.30648981E-02  3.30678970E-02  3.30661647E-02
  3.30677815E-02  3.30669731E-02  3.30644362E-02  3.30695100E-02  3.30674350E-02
  3.30630504E-02  3.30662802E-02  3.30700874E-02  3.30658183E-02  3.30689326E-02
  3.30661647E-02  3.30630504E-02  3.30668576E-02  3.30678970E-02  3.30672041E-02
  3.30655873E-02  3.30708958E-02  3.30653600E-02  3.30624767E-02  3.30710113E-02
  3.30643207E-02  3.30644362E-02  3.30737792E-02  3.30621302E-02  3.30699719E-02
  3.30663957E-02  3.30605134E-02  3.30714695E-02  3.30644362E-02  3.30683552E-02
  3.30672041E-02  3.30660492E-02  3.30669731E-02  3.30674350E-02  3.30658183E-02
  3.30670886E-02  3.30667421E-02  3.30668576E-02  3.30662802E-02  3.30674350E-02
  3.30663957E-02  3.30667421E-02  3.30673195E-02  3.30658183E-02  3.30668576E-02
  3.30668576E-02  3.30669731E-02  3.30668576E-02  3.30674350E-02  3.30665112E-02
  3.30651291E-02  3.30684707E-02  3.30659337E-02  3.30666266E-02  3.30677815E-02
  3.30660492E-02  3.30672041E-02  3.30652446E-02  3.30665112E-02  3.30672041E-02
  3.30683552E-02  3.30659337E-02  3.30663957E-02  3.30683552E-02  3.30640897E-02
  3.30667421E-02  3.30687016E-02  3.30676660E-02  3.30642052E-02  3.30669731E-02
  3.30665112E-02  3.30675505E-02  3.30677815E-02  3.30678970E-02  3.30651291E-02
  3.30646671E-02  3.30684707E-02  3.30682397E-02  3.30651291E-02  3.30648981E-02
  3.30692790E-02  3.30637433E-02  3.30708958E-02  3.30644362E-02  3.30678970E-02
  3.30653600E-02  3.30699719E-02  3.30639742E-02  3.30681279E-02  3.30631658E-02
  3.30720469E-02  3.30666266E-02  3.30623612E-02  3.30688171E-02  3.30633968E-02
  3.30721624E-02  2.33564687E+00  3.30684707E-02  3.30668576E-02  3.30672041E-02
->       1      12       3      16                                 <-   
ILIBRARYNAME                                                                    
         4         4         4         4         4         4         4         4
         4         4         4         4         4         4         4         4
_W300g_20MeV                                                    
->       1      12       3       3                                 <-   
SIGNATURE                                                                       
         4         4         4
L_LIBRARY   
->       1      12       1      40                                 <-   
STATE-VECTOR                                                                    
         1         1       300         2         0         0         1         1
       301         0         0         0        16         1         0         0
         0         1         0         0         0       300         4         0
         0         0         0         0         0         0         0         0
         0         0         0         0         0         0         0         0
->       1      12       3       3                                 <-   
ISOTOPESUSED                                                                    
         4         4         4
Wnat    0001
->       1      12       3       3                                 <-   
ISOTOPERNAME                                                                    
         4         4         4
w           
->       1      12       1       1                                 <-   
ISOTOPESMIX                                                                     
         1
->       1      12       1       1                                 <-   
ISOTOPESTODO                                                                    
         0
->       1      12       1       1                                 <-   
ISOTOPESTYPE                                                                    
         1
->       1      12       3       2                                 <-   
ILIBRARYTYPE                                                                    
         4         4
MATXS2  
->       1      12       1       1                                 <-   
ILIBRARYINDX                                                                    
         1
->       1      12       3       2                                 <-   
ISOTOPESCOH                                                                     
         4         4
        
->       1      12       3       2                                 <-   
ISOTOPESINC                                                                     
         4         4
        
->       1      12       3       2                                 <-   
ISOTOPESRESK                                                                    
         4         4
        
->       1      12       1       1                                 <-   
ISOTOPESNTFG                                                                    
         0
->       1      12       3       3                                 <-   
ISOTOPESHIN                                                                     
         4         4         4
            
->       1      12       1       1                                 <-   
ISOTOPESSHI                                                                     
         0
->       1      12       2     300                                 <-   
ISOTOPESDSN                                                                     
  1.00000000E+10  1.00000000E+10  1.00000000E+10  1.00000000E+10  1.00000000E+10
  1.00000000E+10  1.00000000E+10  1.00000000E+10  1.00000000E+10  1.00000000E+10
  1.00000000E+10  1.00000000E+10  1.00000000E+10  1.00000000E+10  1.00000000E+10
  1.00000000E+10  1.00000000E+10  1.00000000E+10  1.00000000E+10  1.00000000E+10
  1.00000000E+10  1.00000000E+10  1.00000000E+10  1.00000000E+10  1.00000000E+10
  1.00000000E+10  1.00000000E+10  1.00000000E+10  1.00000000E+10  1.00000000E+10
  1.00000000E+10  1.00000000E+10  1.00000000E+10  1.00000000E+10  1.00000000E+10
  1.00000000E+10  1.00000000E+10  1.00000000E+10  1.00000000E+10  1.00000000E+10
  1.00000000E+10  1.00000000E+10  1.00000000E+10  1.00000000E+10  1.00000000E+10
  1.00000000E+10  1.00000000E+10  1.00000000E+10  1.00000000E+10  1.00000000E+10
  1.00000000E+10  1.00000000E+10  1.00000000E+10  1.00000000E+10  1.00000000E+10
  1.00000000E+10  1.00000000E+10  1.00000000E+10  1.00000000E+10  1.00000000E+10
  1.00000000E+10  1.00000000E+10  1.00000000E+10  1.00000000E+10  1.00000000E+10
  1.00000000E+10  1.00000000E+10  1.00000000E+10  1.00000000E+10  1.00000000E+10
  1.00000000E+10  1.00000000E+10  1.00000000E+10  1.00000000E+10  1.00000000E+10
  1.00000000E+10  1.00000000E+10  1.00000000E+10  1.00000000E+10  1.00000000E+10
  1.00000000E+10  1.00000000E+10  1.00000000E+10  1.00000000E+10  1.00000000E+10
  1.00000000E+10  1.00000000E+10  1.00000000E+10  1.00000000E+10  1.00000000E+10
  1.00000000E+10  1.00000000E+10  1.00000000E+10  1.00000000E+10  1.00000000E+10
  1.00000000E+10  1.00000000E+10  1.00000000E+10  1.00000000E+10  1.00000000E+10
  1.00000000E+10  1.00000000E+10  1.00000000E+10  1.00000000E+10  1.00000000E+10
  1.00000000E+10  1.00000000E+10  1.00000000E+10  1.00000000E+10  1.00000000E+10
  1.00000000E+10  1.00000000E+10  1.00000000E+10  1.00000000E+10  1.00000000E+10
  1.00000000E+10  1.00000000E+10  1.00000000E+10  1.00000000E+10  1.00000000E+10
  1.00000000E+10  1.00000000E+10  1.00000000E+10  1.00000000E+10  1.00000000E+10
  1.00000000E+10  1.00000000E+10  1.00000000E+10  1.00000000E+10  1.00000000E+10
  1.00000000E+10  1.00000000E+10  1.00000000E+10  1.00000000E+10  1.00000000E+10
  1.00000000E+10  1.00000000E+10  1.00000000E+10  1.00000000E+10  1.00000000E+10
  1.00000000E+10  1.00000000E+10  1.00000000E+10  1.00000000E+10  1.00000000E+10
  1.00000000E+10  1.00000000E+10  1.00000000E+10  1.00000000E+10  1.00000000E+10
  1.00000000E+10  1.00000000E+10  1.00000000E+10  1.00000000E+10  1.00000000E+10
  1.00000000E+10  1.00000000E+10  1.00000000E+10  1.00000000E+10  1.00000000E+10
  1.00000000E+10  1.00000000E+10  1.00000000E+10  1.00000000E+10  1.00000000E+10
  1.00000000E+10  1.00000000E+10  1.00000000E+10  1.00000000E+10  1.00000000E+10
  1.00000000E+10  1.00000000E+10  1.00000000E+10  1.00000000E+10  1.00000000E+10
  1.00000000E+10  1.00000000E+10  1.00000000E+10  1.00000000E+10  1.00000000E+10
  1.00000000E+10  1.00000000E+10  1.00000000E+10  1.00000000E+10  1.00000000E+10
  1.00000000E+10  1.00000000E+10  1.00000000E+10  1.00000000E+10  1.00000000E+10
  1.00000000E+10  1.00000000E+10  1.00000000E+10  1.00000000E+10  1.00000000E+10
  1.00000000E+10  1.00000000E+10  1.00000000E+10  1.00000000E+10  1.00000000E+10
  1.00000000E+10  1.00000000E+10  1.00000000E+10  1.00000000E+10  1.00000000E+10
  1.00000000E+10  1.00000000E+10  1.00000000E+10  1.00000000E+10  1.00000000E+10
  1.00000000E+10  1.00000000E+10  1.00000000E+10  1.00000000E+10  1.00000000E+10
  1.00000000E+10  1.00000000E+10  1.00000000E+10  1.00000000E+10  1.00000000E+10
  1.00000000E+10  1.00000000E+10  1.00000000E+10  1.00000000E+10  1.00000000E+10
  1.00000000E+10  1.00000000E+10  1.00000000E+10  1.00000000E+10  1.00000000E+10
  1.00000000E+10  1.00000000E+10  1.00000000E+10  1.00000000E+10  1.00000000E+10
  1.00000000E+10  1.00000000E+10  1.00000000E+10  1.00000000E+10  1.00000000E+10
  1.00000000E+10  1.00000000E+10  1.00000000E+10  1.00000000E+10  1.00000000E+10
  1.00000000E+10  1.00000000E+10  1.00000000E+10  1.00000000E+10  1.00000000E+10
  1.00000000E+10  1.00000000E+10  1.00000000E+10  1.00000000E+10  1.00000000E+10
  1.00000000E+10  1.00000000E+10  1.00000000E+10  1.00000000E+10  1.00000000E+10
  1.00000000E+10  1.00000000E+10  1.00000000E+10  1.00000000E+10  1.00000000E+10
  1.00000000E+10  1.00000000E+10  1.00000000E+10  1.00000000E+10  1.00000000E+10
  1.00000000E+10  1.00000000E+10  1.00000000E+10  1.00000000E+10  1.00000000E+10
  1.00000000E+10  1.00000000E+10  1.00000000E+10  1.00000000E+10  1.00000000E+10
  1.00000000E+10  1.00000000E+10  1.00000000E+10  1.00000000E+10  1.00000000E+10
  1.00000000E+10  1.00000000E+10  1.00000000E+10  1.00000000E+10  1.00000000E+10
  1.00000000E+10  1.00000000E+10  1.00000000E+10  1.00000000E+10  1.00000000E+10
  1.00000000E+10  1.00000000E+10  1.00000000E+10  1.00000000E+10  1.00000000E+10
->       1      12       2     300                                 <-   
ISOTOPESDSB                                                                     
  1.00000000E+10  1.00000000E+10  1.00000000E+10  1.00000000E+10  1.00000000E+10
  1.00000000E+10  1.00000000E+10  1.00000000E+10  1.00000000E+10  1.00000000E+10
  1.00000000E+10  1.00000000E+10  1.00000000E+10  1.00000000E+10  1.00000000E+10
  1.00000000E+10  1.00000000E+10  1.00000000E+10  1.00000000E+10  1.00000000E+10
  1.00000000E+10  1.00000000E+10  1.00000000E+10  1.00000000E+10  1.00000000E+10
  1.00000000E+10  1.00000000E+10  1.00000000E+10  1.00000000E+10  1.00000000E+10
  1.00000000E+10  1.00000000E+10  1.00000000E+10  1.00000000E+10  1.00000000E+10
  1.00000000E+10  1.00000000E+10  1.00000000E+10  1.00000000E+10  1.00000000E+10
  1.00000000E+10  1.00000000E+10  1.00000000E+10  1.00000000E+10  1.00000000E+10
  1.00000000E+10  1.00000000E+10  1.00000000E+10  1.00000000E+10  1.00000000E+10
  1.00000000E+10  1.00000000E+10  1.00000000E+10  1.00000000E+10  1.00000000E+10
  1.00000000E+10  1.00000000E+10  1.00000000E+10  1.00000000E+10  1.00000000E+10
  1.00000000E+10  1.00000000E+10  1.00000000E+10  1.00000000E+10  1.00000000E+10
  1.00000000E+10  1.00000000E+10  1.00000000E+10  1.00000000E+10  1.00000000E+10
  1.00000000E+10  1.00000000E+10  1.00000000E+10  1.00000000E+10  1.00000000E+10
  1.00000000E+10  1.00000000E+10  1.00000000E+10  1.00000000E+10  1.00000000E+10
